Time (s),Channel 1 (V),Channel 2 (V)
-0.000532389393939394,0.9425622840303186,1.976204969470191
-0.000532259393939394,0.9408653365843757,1.961338985435305
-0.000532129393939394,0.9384896101600556,1.943094368665219
-0.000531999393939394,0.9371320522033013,1.927890521356813
-0.000531869393939394,0.9350957152681707,1.912348810774894
-0.0005317393939393941,0.9337381573114162,1.896469236919448
-0.000531609393939394,0.9310230413979067,1.881603252884549
-0.000531479393939394,0.9306836519087167,1.866399405576142
-0.000531349393939394,0.9272897570168325,1.849506241900144
-0.000531219393939394,0.9266109780384553,1.834978121138778
-0.000531089393939394,0.9242352516141352,1.819436410556853
-0.000530959393939394,0.9215201357006266,1.802881110154366
-0.000530829393939394,0.9198231882546837,1.789366579213561
-0.0005306993939393941,0.91846563029793,1.773824868631642
-0.0005305693939393941,0.9160899038736104,1.759296747870277
-0.000530439393939394,0.914732345916854,1.743755037288337
-0.000530309393939394,0.9126960089817234,1.728213326706419
-0.000530179393939394,0.910659672046592,1.712333752850972
-0.000530049393939394,0.9072657771547062,1.697805632089607
-0.000529919393939394,0.9062476086871405,1.683615374601762
-0.000529789393939394,0.9038718822628203,1.668749390566876
-0.0005296593939393941,0.9021749348168783,1.653207679984958
-0.0005295293939393941,0.8997992083925586,1.638003832676552
-0.000529399393939394,0.8970840924790473,1.622799985368133
-0.000529269393939394,0.8940295870763505,1.608609727880287
-0.000529139393939394,0.8916538606520314,1.594081607118928
-0.000529009393939394,0.8892781342277114,1.579891349631083
-0.000528879393939394,0.8872417972925799,1.565025365596197
-0.000528749393939394,0.8845266813790713,1.550835108108352
-0.000528619393939394,0.8821509549547524,1.535293397526433
-0.0005284893939393941,0.8790964495520555,1.521778866585628
-0.000528359393939394,0.8767207231277331,1.50758860909777
-0.000528229393939394,0.8746843861926012,1.493736214883444
-0.000528099393939394,0.8719692702790939,1.479208094122085
-0.000527969393939394,0.8689147648763966,1.46569356318128
-0.000527839393939394,0.8668784279412651,1.451503305693435
-0.000527709393939394,0.8648420910061336,1.43798877475263
-0.000527579393939394,0.8614481961142478,1.423460653991265
-0.0005274493939393941,0.8590724696899289,1.410959712871026
-0.000527319393939394,0.8563573537764174,1.395418002289089
-0.000527189393939394,0.8526240693953436,1.383592787715883
-0.000527059393939394,0.8502483429710247,1.369740393501564
-0.000526929393939394,0.8478726165467046,1.355887999287239
-0.000526799393939394,0.8441393321656302,1.342035605072914
-0.000526669393939394,0.8421029952304987,1.329196800679149
-0.000526539393939394,0.8393878793169901,1.315006543191304
-0.0005264093939393941,0.8359939844251059,1.302505602071065
-0.0005262793939393941,0.8326000895332201,1.28932893440378
-0.000526149393939394,0.8292061946413308,1.277841583104084
-0.000526019393939394,0.8251335207710683,1.263989188889759
-0.000525889393939394,0.8220790153683725,1.251150384496
-0.000525759393939394,0.8193638994548639,1.237973716828715
-0.000525629393939394,0.8163093940521666,1.22479704916143
-0.000525499393939394,0.8122367201819036,1.212633971314706
-0.000525369393939394,0.8085034358008309,1.200470893467987
-0.0005252393939393941,0.8057883198873218,1.187632089074222
-0.000525109393939394,0.8020550355062448,1.175806874501006
-0.000524979393939394,0.7990005301035478,1.163305933380762
-0.000524849393939394,0.7962854141900404,1.151480718807563
-0.000524719393939394,0.7922127403197774,1.138979777687318
-0.000524589393939394,0.7878006769603259,1.127492426387634
-0.000524459393939394,0.7844067820684401,1.11566721181443
-0.000524329393939394,0.7816916661549327,1.103841997241231
-0.0005241993939393941,0.778976550241424,1.092354645941546
-0.000524069393939394,0.7755826553495355,1.080529431368331
-0.000523939393939394,0.7725281499468377,1.068366353521607
-0.000523809393939394,0.7681160865873882,1.057892592042488
-0.000523679393939394,0.7650615811846909,1.045391650922243
-0.000523549393939394,0.7616676862928051,1.034917889443119
-0.000523419393939394,0.7582737914009193,1.023768401416955
-0.000523289393939394,0.7552192859982222,1.011605323570231
-0.0005231593939393941,0.7508072226387726,1.001469425364631
-0.0005230293939393941,0.7484314962144516,0.9893063475179078
-0.000522899393939394,0.7443588223441864,0.9791704493122938
-0.000522769393939394,0.7416437064306789,0.9686966878331746
-0.000522639393939394,0.737571032560416,0.9578850630805307
-0.000522509393939394,0.7345165271577188,0.948087028148447
-0.000522379393939394,0.7318014112442101,0.9382889932163634
-0.000522249393939394,0.7287469058415129,0.9278152317372395
-0.0005221193939393941,0.7260317899280054,0.9163278804375602
-0.0005219893939393941,0.72263789503612,0.9072055720525157
-0.000521859393939394,0.7192440001442312,0.8984211269409831
-0.000521729393939394,0.7161894947415341,0.8869337756413004
-0.000521599393939394,0.7134743788280268,0.878825057076821
-0.000521469393939394,0.7110986524037066,0.8676755690506568
-0.000521339393939394,0.7087229259793866,0.8588911239391337
-0.000521209393939394,0.7056684205766894,0.8490930890070501
-0.000521079393939394,0.7026139151739936,0.8409843704425707
-0.0005209493939393941,0.6998987992604847,0.8328756518780877
-0.000520819393939394,0.697183683346974,0.8224018903989559
-0.000520689393939394,0.6951473464118419,0.8132795820139129
-0.000520559393939394,0.6920928410091461,0.8055087267229537
-0.000520429393939394,0.6897171145848261,0.7960485550643901
-0.000520299393939394,0.6873413881605061,0.7879398364999071
-0.000520169393939394,0.6859838302037518,0.7788175281148637
-0.000520039393939394,0.6829293248010559,0.7707088095503843
-0.0005199093939393941,0.6808929878659239,0.7629379542594212
-0.000519779393939394,0.6771597034848476,0.754829235694931
-0.000519649393939394,0.6747839770605274,0.7467205171304481
-0.000519519393939394,0.6720688611470199,0.7389496618394888
-0.000519389393939394,0.6703719137010771,0.7298273534544455
-0.000519259393939394,0.6683355767659456,0.7234079512575631
-0.000519129393939394,0.6666386293200026,0.7156370959666001
-0.000518999393939394,0.6649416818740598,0.7082041039491573
-0.0005188693939393941,0.6632447344281176,0.7007711119317179
-0.0005187393939393941,0.6615477869821746,0.6936759831877951
-0.000518609393939394,0.6588326710686644,0.6865808544438655
-0.000518479393939394,0.6567963341335338,0.6784721358793862
-0.000518349393939394,0.6550993866875909,0.672390596956024
-0.000518219393939394,0.6530630497524594,0.6656333314856213
-0.000518089393939394,0.6517054917957051,0.6588760660152189
-0.000517959393939394,0.649329765371385,0.6531323903653767
-0.0005178293939393941,0.6476328179254429,0.6463751248949774
-0.0005176993939393941,0.6459358704795,0.6402935859716147
-0.000517569393939394,0.6442389230335552,0.634549910321767
-0.000517439393939394,0.6418631966092355,0.6284683713984052
-0.000517309393939394,0.6401662491632933,0.6230625590220855
-0.000517179393939394,0.6377905227389733,0.6169810200987231
-0.000517049393939394,0.6354147963146533,0.6119130709959213
-0.000516919393939394,0.634057238357899,0.6065072586195992
-0.000516789393939394,0.6326996804011452,0.6007635829697597
-0.0005166593939393941,0.6310027329552025,0.5960334971404776
-0.000516529393939394,0.6293057855092575,0.591303411311191
-0.000516399393939394,0.6265906695957497,0.5855597356613494
-0.000516269393939394,0.6255725011281844,0.5808296498320697
-0.000516139393939394,0.6252331116389959,0.5760995640027879
-0.000516009393939394,0.6231967747038644,0.5717073414470264
-0.000515879393939394,0.6211604377687329,0.5673151188912646
-0.000515749393939394,0.6187847113444128,0.5635986228825434
-0.0005156193939393941,0.6170877638984706,0.5595442636003037
-0.000515489393939394,0.6147120374741499,0.5548141777710184
-0.000515359393939394,0.6150514269633377,0.5510976817622965
-0.000515229393939394,0.6136938690065841,0.5463675959330168
-0.000515099393939394,0.6119969215606412,0.5426510999242955
-0.000514969393939394,0.6099605846255097,0.5399481937361343
-0.000514839393939394,0.6092818056471325,0.5365695610009331
-0.000514709393939394,0.6069060792228125,0.5328530649922119
-0.0005145793939393941,0.6048697422876819,0.5301501588040519
-0.0005144493939393941,0.6028334053525504,0.527447252615891
-0.000514319393939394,0.6018152368849828,0.5244064831542072
-0.000514189393939394,0.5997788999498518,0.5213657136925263
-0.000514059393939394,0.5987607314822865,0.5183249442308464
-0.000513929393939394,0.5977425630147208,0.5162977645897255
-0.000513799393939394,0.5957062260795893,0.5139327216750846
-0.000513669393939394,0.5953668365904007,0.511905542033964
-0.000513539393939394,0.5936698891444586,0.509878362392844
-0.0005134093939393941,0.5926517206768925,0.5088647725722832
-0.000513279393939394,0.5906153837417598,0.5054861398370811
-0.000513149393939394,0.5889184362958171,0.5044725500165208
-0.000513019393939394,0.5875608783390633,0.5034589601959607
-0.000512889393939394,0.5872214888498748,0.5017696438283601
-0.000512759393939394,0.5875608783390633,0.50109391728132
-0.000512629393939394,0.586203320382309,0.5004181907342797
-0.000512499393939394,0.5855245414039322,0.4977152845461198
-0.0005123693939393941,0.5841669834471782,0.4983910110931588
-0.000512239393939394,0.5831488149796111,0.4967016947255581
-0.000512109393939394,0.5817912570228571,0.4963638314520376
-0.000511979393939394,0.5807730885552917,0.4953502416314777
-0.000511849393939394,0.5787367516201603,0.4960259681785182
-0.000511719393939394,0.577379193663406,0.4946745150844376
-0.000511589393939394,0.5760216357066517,0.4950123783579579
-0.000511459393939394,0.5746640777498974,0.4939987885373971
-0.0005113293939393941,0.5733065197931436,0.4946745150844373
-0.000511199393939394,0.571948961836388,0.4960259681785177
-0.000511069393939394,0.570591403879634,0.4950123783579586
-0.000510939393939394,0.5699126249012572,0.4967016947255583
-0.000510809393939394,0.5695732354120686,0.4973774212725983
-0.000510679393939394,0.5675368984769371,0.4973774212725983
-0.000510549393939394,0.5665187300093714,0.4980531478196388
-0.000510419393939394,0.5648217825634285,0.4994046009137194
-0.0005102893939393941,0.5634642246066748,0.5004181907342793
-0.0005101593939393941,0.5614278876715436,0.5017696438283594
-0.000510029393939394,0.5614278876715419,0.5031210969224413
-0.000509899393939394,0.5597309402255993,0.5044725500165221
-0.000509769393939394,0.558712771758034,0.5064997296576419
-0.000509639393939394,0.5570158243120912,0.5081890460252425
-0.000509509393939394,0.5559976558445254,0.5105540889398834
-0.000509379393939394,0.5553188768661482,0.511905542033964
-0.000509249393939394,0.5539613189093946,0.5146084482221237
-0.0005091193939393941,0.5532825399310171,0.5176492176838048
-0.000508989393939394,0.5522643714634502,0.5193385340514081
-0.000508859393939394,0.5505674240175074,0.5223793035130893
-0.000508729393939394,0.5488704765715652,0.5254200729747691
-0.000508599393939394,0.5488704765715652,0.5284608424364501
-0.000508469393939394,0.5444584132121136,0.530825885351091
-0.000508339393939394,0.5437796342337365,0.5338666548127722
-0.000508209393939394,0.5424220762769828,0.5379210140950118
-0.0005080793939393941,0.5420826867877937,0.5409617835566936
-0.000507949393939394,0.5414039078094155,0.5446782795654183
-0.000507819393939394,0.5393675708742849,0.5494083653946995
-0.000507689393939394,0.5390281813850963,0.5527869981298992
-0.000507559393939394,0.5373312339391535,0.5581928105062213
-0.000507429393939394,0.5363130654715877,0.5615714432414225
-0.000507299393939394,0.5356342864932105,0.565625802523664
-0.000507169393939394,0.5346161180256448,0.5696801618059055
-0.0005070393939393941,0.5329191705797027,0.5757617007292651
-0.0005069093939393941,0.5322403916013251,0.5791403334644676
-0.000506779393939394,0.5312222231337587,0.5838704192937536
-0.000506649393939394,0.5305434441553819,0.5896140949435931
-0.000506519393939394,0.5291858861986275,0.5940063174993546
-0.000506389393939394,0.528846496709439,0.600087856422717
-0.000506259393939394,0.5281677177310617,0.6048179422519986
-0.000506129393939394,0.5261313807959304,0.6102237546283207
-0.000505999393939394,0.5254526018175535,0.6149538404576004
-0.0005058693939393941,0.5240950438607995,0.6210353793809619
-0.000505739393939394,0.5234162648824212,0.6267790550308096
-0.000505609393939394,0.5223980964148556,0.6328605939541724
-0.000505479393939394,0.5217193174364788,0.6399557226980919
-0.000505349393939394,0.5223980964148559,0.6440100819803334
-0.000505219393939394,0.5217193174364788,0.6507673474507358
-0.000505089393939394,0.5200223699905359,0.6561731598270579
-0.000504959393939394,0.519343591012159,0.6629304252974573
-0.0005048293939393941,0.5186648120337819,0.6703634173148998
-0.000504699393939394,0.5176466435662158,0.6774585460588286
-0.000504569393939394,0.5176466435662154,0.6835400849821915
-0.000504439393939394,0.5166284750986501,0.691310940273151
-0.000504309393939394,0.5159496961202729,0.6977303424700334
-0.000504179393939394,0.5145921381635186,0.7055011977609964
-0.000504049393939394,0.5139133591851414,0.7119205999578786
-0.000503919393939394,0.5135739696959528,0.7207050450694019
-0.0005037893939393941,0.5135739696959528,0.7281380370868413
-0.000503659393939394,0.5135739696959525,0.7345574392837311
-0.000503529393939394,0.5128951907175756,0.7433418843952539
-0.000503399393939394,0.5125558012283871,0.7511127396862134
-0.000503269393939394,0.5122164117391985,0.7588835949771762
-0.000503139393939394,0.5128951907175757,0.7680059033622197
-0.000503009393939394,0.5128951907175757,0.7757767586531825
-0.000502879393939394,0.5132345802067643,0.7845612037647058
-0.0005027493939393941,0.5145921381635179,0.7933456488762252
-0.0005026193939393941,0.5156103066310839,0.8014543674407085
-0.000502489393939394,0.5169678645878395,0.81057667582576
-0.000502359393939394,0.5190042015229701,0.8203747107578429
-0.000502229393939394,0.5190042015229701,0.8284834293223222
-0.000502099393939394,0.5207011489689131,0.8389571908014462
-0.000501969393939394,0.5240950438607989,0.8480794991864895
-0.000501839393939394,0.5274889387526847,0.8572018075715331
-0.000501709393939394,0.5308828336445689,0.8659862526830522
-0.0005015793939393941,0.5349555075148316,0.8757842876151354
-0.000501449393939394,0.5397069603634751,0.8849065960001882
-0.000501319393939394,0.5431008552553613,0.8953803574793118
-0.000501189393939394,0.5475129186148109,0.905178392411391
-0.000501059393939394,0.5529431504418282,0.9149764273434746
-0.000500929393939394,0.5583733822688455,0.9257880520961186
-0.000500799393939394,0.562785445628297,0.9359239503017225
-0.000500669393939394,0.5695732354120655,0.9460598485073215
-0.0005005393939393941,0.5756822462174603,0.9555200201658854
-0.000500409393939394,0.5821306465120493,0.9666695081920589
-0.000500279393939394,0.5892578257850095,0.9778189962182223
-0.000500149393939394,0.5963850050579664,0.9872791678767816
-0.000500019393939394,0.6035121843309267,0.9994422457235062
-0.000499889393939394,0.611318142582264,1.00890241738207
-0.000499759393939394,0.6201422693011671,1.020389768681754
-0.000499629393939394,0.6272694485741273,1.031539256707918
-0.0004994993939393941,0.6357541858038379,1.043702334554637
-0.000499369393939394,0.645257091501126,1.055189685854331
-0.000499239393939394,0.6537418287308409,1.064987720786416
-0.000499109393939394,0.6632447344281168,1.077488661906655
-0.000498979393939394,0.6730870296145857,1.087962423385779
-0.000498849393939394,0.6815717668443002,1.099787637958984
-0.000498719393939394,0.6910746725415804,1.111950715805708
-0.000498589393939394,0.7015957467064264,1.123438067105393
-0.0004984593939393941,0.7117774313820792,1.135263281678591
-0.0004983293939393941,0.7209409475901712,1.148102086072356
-0.000498199393939394,0.7311226322658368,1.161278753739651
-0.000498069393939394,0.7396073694955516,1.171752515218776
-0.000497939393939394,0.7487708857036391,1.184591319612535
-0.000497809393939394,0.7582737914009193,1.19709226073278
-0.000497679393939394,0.7674373076090111,1.209255338579505
-0.000497549393939394,0.775582655349537,1.22310773279383
-0.000497419393939394,0.7827098346224939,1.235946537187589
-0.0004972893939393941,0.7901764033846425,1.247433888487274
-0.000497159393939394,0.7956066352116666,1.260948419428089
-0.000497029393939394,0.8030732039738148,1.273111497274814
-0.000496899393939394,0.8091822147792065,1.285950301668573
-0.000496769393939394,0.8146124466062237,1.299802695882898
-0.000496639393939394,0.820042678433241,1.311627910456103
-0.000496509393939394,0.8247941312818812,1.325480304670428
-0.000496379393939394,0.8298849736197075,1.338656972337707
-0.0004962493939393941,0.8339576474899709,1.351495776731472
-0.000496119393939394,0.8380303213602378,1.365686034219329
-0.000495989393939394,0.8424423847196888,1.378524838613094
-0.000495859393939394,0.8454968901223845,1.392377232827413
-0.000495729393939394,0.8492301745034589,1.405891763768218
-0.000495599393939394,0.8529634588845333,1.420082021256063
-0.000495469393939394,0.8563573537764191,1.434272278743909
-0.000495339393939394,0.8604300276466821,1.447111083137673
-0.0004952093939393941,0.8634845330493779,1.462314930446072
-0.0004950793939393941,0.867217817430452,1.476505187933918
-0.000494949393939394,0.869932933343964,1.490019718874736
-0.000494819393939394,0.8736662177250367,1.504885702909615
-0.000494689393939394,0.8763813336385454,1.51941382367098
-0.000494559393939394,0.879096449552054,1.532928354611785
-0.000494429393939394,0.8821509549547513,1.54678074882611
-0.000494299393939394,0.8848660708682599,1.561308869587476
-0.000494169393939394,0.8875811867817673,1.575836990348835
-0.0004940393939393941,0.8906356921844643,1.58935152128964
-0.000493909393939394,0.8933508080979761,1.605231095145099
-0.000493779393939394,0.8970840924790502,1.619759215906464
-0.000493649393939394,0.900138597881746,1.634287336667823
-0.000493519393939394,0.9028537137952547,1.647801867608628
-0.000493389393939394,0.9059082191979518,1.663005714917034
-0.000493259393939394,0.9089627246006491,1.6775338356784
-0.000493129393939394,0.911338451024968,1.693751272807358
-0.0004929993939393941,0.9137141774492881,1.708617256842244
-0.000492869393939394,0.9171080723411765,1.722807514330103
-0.000492739393939394,0.9201625777438733,1.738011361638509
-0.000492609393939394,0.9225383041681923,1.752539482399868
-0.000492479393939394,0.9255928095708895,1.768419056255313
-0.000492349393939394,0.9286473149735868,1.783622903563719
-0.000492219393939394,0.9310230413979068,1.799840340692685
-0.000492089393939394,0.9330593783330374,1.814030598180524
-0.0004919593939393941,0.936792662714111,1.830923761856529
-0.000491829393939394,0.9388289996492454,1.84511401934439
-0.000491699393939394,0.9415441155627541,1.861331456473355
-0.000491569393939394,0.9442592314762615,1.876535303781754
-0.000491439393939394,0.9466349579005815,1.89207701436368
-0.000491309393939394,0.9490106843249015,1.908294451492646
-0.000491179393939394,0.9517258002384102,1.923498298801051
-0.000491049393939394,0.9541015266627303,1.939715735930017
-0.0004909193939393941,0.9568166425762378,1.955257446511936
-0.0004907893939393941,0.9585135900221811,1.970123430546822
-0.000490659393939394,0.9619074849140691,1.987354457496362
-0.000490529393939394,0.9649619903167658,2.002558304804768
-0.000490399393939394,0.9669983272518964,2.018100015386687
-0.000490269393939394,0.9700528326545936,2.034993179062693
-0.000490139393939394,0.9717497801005365,2.050197026371099
-0.000490009393939394,0.973786117035668,2.066076600226545
-0.000489879393939394,0.9765012329491753,2.081618310808463
-0.0004897493939393941,0.9785375698843072,2.096822158116869
-0.000489619393939394,0.9805739068194407,2.11439104833993
-0.000489489393939394,0.9829496332437607,2.130946348742417
-0.000489359393939394,0.9853253596680797,2.147163785871375
-0.000489229393939394,0.9870223071140226,2.162029769906261
-0.000489099393939394,0.9893980335383427,2.178247207035227
-0.000488969393939394,0.9917737599626627,2.193788917617153
